wavenumber,intensity
399.197439,0.711684467
401.125929,0.709943946
403.054419,0.7082188
404.982909,0.706508896
406.911399,0.704814104
408.839889,0.703134293
410.768379,0.701469328
412.696869,0.699819081
414.625359,0.698183418
416.553849,0.696562212
418.482339,0.694955336
420.410829,0.69336266
422.339319,0.691784061
424.267809,0.690219414
426.196299,0.666026737
428.124789,0.64208633
430.05328,0.618396077
431.98177,0.594953913
433.91026,0.571757743
435.83875,0.548805507
437.76724,0.526095155
439.69573,0.503624647
441.62422,0.481391962
443.55271,0.459395092
445.4812,0.437632035
447.40969,0.41610081
449.33818,0.394799446
451.26667,0.373725988
453.19516,0.352878489
455.12365,0.332255019
457.05214,0.311853664
458.98063,0.291672514
460.90912,0.271709677
462.83761,0.251963275
464.7661,0.23243144
466.69459,0.213112318
468.62308,0.194004067
470.55157,0.16491191
472.48006,0.146364747
474.408551,0.128021355
476.337041,0.109879975
478.265531,0.091938828
480.194021,0.074196161
482.122511,0.056650233
484.051001,0.039299312
485.979491,0.022141681
487.907981,0.014123031
489.836471,0
491.764961,0
493.693451,0
495.621941,0
497.550431,0
499.478921,0
501.407411,0
503.335901,0
505.264391,0
507.192881,0.076649434
509.121371,0.281101347
511.049861,0.500012397
512.978351,0.71048749
514.906841,0.881808422
516.835331,0.987192571
518.763821,1
520.692312,0.893977901
522.620802,0.880245887
524.549292,0.865988654
526.477782,0.852207811
528.406272,0.839721301
530.334762,0.828471395
532.263252,0.81794695
534.191742,0.807810178
536.120232,0.797673813
538.048722,0.787135977
539.977212,0.776211609
541.905702,0.76528013
543.834192,0.754649165
545.762682,0.744294854
547.691172,0.733979374
549.619662,0.723634041
551.548152,0.71351743
553.476642,0.70385709
555.405132,0.694484034
557.333622,0.685016251
559.262112,0.67523659
561.190602,0.665182458
563.119092,0.654991284
565.047583,0.644699855
566.976073,0.634237038
568.904563,0.62363605
570.833053,0.613075446
572.761543,0.602693245
574.690033,0.592483815
576.618523,0.582340586
578.547013,0.57217698
580.475503,0.562049798
582.403993,0.55208343
584.332483,0.542242684
586.260973,0.532356561
588.189463,0.522339632
590.117953,0.51221606
592.046443,0.502040964
593.974933,0.491860417
595.903423,0.481642252
597.831913,0.47132013
599.760403,0.460930442
601.688893,0.450600332
603.617383,0.440423841
605.545873,0.430403127
607.474363,0.420492149
609.402853,0.410665551
611.331344,0.400900772
613.259834,0.391116486
615.188324,0.381205831
617.116814,0.37112469
619.045304,0.36090823
620.973794,0.350628649
622.902284,0.343889182
624.830774,0.337278954
626.759264,0.330790204
628.687754,0.324428044
630.616244,0.318213366
632.544734,0.312134346
634.473224,0.306144067
636.401714,0.300213434
638.330204,0.294350628
640.258694,0.288572531
642.187184,0.282883051
644.115674,0.277261816
646.044164,0.27508601
647.972654,0.269474905
649.901144,0.263931784
651.829634,0.258496793
653.758124,0.253185935
655.686615,0.247994475
657.615105,0.242898477
659.543595,0.237867041
661.472085,0.232892446
663.400575,0.22798763
665.329065,0.215717337
667.257555,0.211053259
669.186045,0.206457838
671.114535,0.201933241
673.043025,0.19748222
674.971515,0.193105588
676.900005,0.188800359
678.828495,0.184563772
680.756985,0.18040038
682.685475,0.176316992
684.613965,0.172311417
686.542455,0.168373828
688.470945,0.1644978
690.399435,0.160682087
692.327925,0.156927032
694.256415,0.153240082
696.184905,0.14963577
698.113395,0.14612075
700.041885,0.142691432
701.970376,0.139344355
703.898866,0.136072904
705.827356,0.132862895
707.755846,0.129702388
709.684336,0.126584961
711.612826,0.123503847
713.541316,0.120455898
715.469806,0.114847019
717.398296,0.111919952
719.326786,0.10904902
721.255276,0.106238799
723.183766,0.103488863
725.112256,0.100794146
727.040746,0.098149488
728.969236,0.095553203
730.897726,0.093005351
732.826216,0.090504139
734.754706,0.088047516
736.683196,0.085635203
738.611686,0.08326559
740.540176,0.080934169
742.468666,0.078635922
744.397156,0.076367473
746.325647,0.074128192
748.254137,0.077006819
750.182627,0.076894526
752.111117,0.064481223
754.039607,0.0624728
755.968097,0.060538626
757.896587,0.058668972
759.825077,0.056846246
761.753567,0.055055385
763.682057,0.053290997
765.610547,0.051553346
767.539037,0.049840369
769.467527,0.048150904
771.396017,0.046490857
773.324507,0.044867372
775.252997,0.043279787
777.181487,0.041723328
779.109977,0.044895736
781.038467,0.043383825
782.966957,0.041928422
784.895447,0.04053134
786.823937,0.039180735
788.752427,0.037862925
790.680918,0.036576284
792.609408,0.035325299
794.537898,0.034108654
796.466388,0.032923971
798.394878,0.034971623
800.323368,0.033833076
802.251858,0.032739499
804.180348,0.031683086
806.108838,0.030654258
808.037328,0.029654155
809.965818,0.028693125
811.894308,0.020564064
813.822798,0.019719462
815.751288,0.018890097
817.679778,0.018075037
819.608268,0.017274467
821.536758,0.016485652
823.465248,0.015705218
825.393738,0.014934268
827.322228,0.016734752
829.250718,0.015997578
831.179208,0.015280129
833.107698,0.01457027
835.036188,0.013861613
836.964679,0.014675208
838.893169,0.013972385
840.821659,0.013278743
842.750149,0.012595791
844.678639,0.013880932
846.607129,0.013215513
848.535619,0.012567959
850.464109,0.011936113
852.392599,0.011828577
854.321089,0.01120332
856.249579,0.01094027
858.178069,0.010342204
860.106559,0
862.035049,0
863.963539,0
865.892029,0
867.820519,0
869.749009,0
871.677499,0
873.605989,0
875.534479,0
877.462969,0
879.391459,0
881.31995,0
883.24844,0
885.17693,0
887.10542,0
889.03391,0
890.9624,0
892.89089,0
894.81938,0
896.74787,0
898.67636,0
900.60485,0
902.53334,0
904.46183,0
906.39032,0
908.31881,0
910.2473,0
912.17579,0
914.10428,0
916.03277,0
917.96126,0
919.88975,0
921.81824,0
923.74673,0
925.67522,0
927.603711,0
929.532201,0
931.460691,0
933.389181,0
935.317671,0
937.246161,0
939.174651,0
941.103141,0
943.031631,0
944.960121,0
946.888611,0
948.817101,0
950.745591,0
952.674081,0
954.602571,0
956.531061,0
958.459551,0
960.388041,0
962.316531,0
964.245021,0
966.173511,0
968.102001,0
970.030491,0
971.958982,0
973.887472,0
975.815962,0
977.744452,0
979.672942,0
981.601432,0
983.529922,0
985.458412,0
987.386902,0
989.315392,0
991.243882,0
993.172372,0
995.100862,0
997.029352,0
998.957842,0
1000.886332,0
1002.814822,0
1004.743312,0
1006.671802,0
1008.600292,0
1010.528782,0
1012.457272,0
1014.385762,0
1016.314252,0
1018.242743,0
1020.171233,0
1022.099723,0
1024.028213,0
1025.956703,0
1027.885193,0
1029.813683,0
1031.742173,0
1033.670663,0
1035.599153,0
1037.527643,0
1039.456133,0
1041.384623,0
1043.313113,0
1045.241603,0
1047.170093,0
1049.098583,0
1051.027073,0
1052.955563,0
1054.884053,0
1056.812543,0
1058.741033,0
1060.669523,0
1062.598014,0
1064.526504,0
1066.454994,0
1068.383484,0
1070.311974,0
1072.240464,0
1074.168954,0
1076.097444,0
1078.025934,0
1079.954424,0
1081.882914,0
1083.811404,0
1085.739894,0
1087.668384,0
1089.596874,0
1091.525364,0
1093.453854,0
1095.382344,0
1097.310834,0
1099.239324,0
1101.167814,0
1103.096304,0
1105.024794,0
1106.953285,0
1108.881775,0
1110.810265,0
1112.738755,0
1114.667245,0
1116.595735,0
1118.524225,0
1120.452715,0
1122.381205,0
1124.309695,0
1126.238185,0
1128.166675,0
1130.095165,0
1132.023655,0
1133.952145,0
1135.880635,0
1137.809125,0.010454827
1139.737615,0.010860445
1141.666105,0.011250256
1143.594595,0.010815506
1145.523085,0.011192404
1147.451575,0.011572785
1149.380065,0.011952765
1151.308555,0.011703126
1153.237046,0.01206798
1155.165536,0.012423108
1157.094026,0.012766296
1159.022516,0.013100088
1160.951006,0.012324905
1162.879496,0.012658281
1164.807986,0.012991357
1166.736476,0.013318942
1168.664966,0.013638669
1170.593456,0.013952543
1172.521946,0.014262587
1174.450436,0.014569504
1176.378926,0.014875332
1178.307416,0.013373829
1180.235906,0.01368965
1182.164396,0.014014924
1184.092886,0.014346665
1186.021376,0.014679471
1187.949866,0.015012909
1189.878356,0.015349505
1191.806846,0.015686987
1193.735336,0.016018644
1195.663826,0.016339175
1197.592317,0.016647898
1199.520807,0.016948736
1201.449297,0.017246665
1203.377787,0.014981616
1205.306277,0.015276073
1207.234767,0.015565042
1209.163257,0.015848507
1211.091747,0.016125466
1213.020237,0.016395448
1214.948727,0.016657884
1216.877217,0.016910317
1218.805707,0.01715053
1220.734197,0.017378955
1222.662687,0.017597505
1224.591177,0.017806508
1226.519667,0.018004233
1228.448157,0.018190277
1230.376647,0.016921411
1232.305137,0.017093659
1234.233627,0.017250565
1236.162117,0.017388354
1238.090607,0.017506657
1240.019097,0.01760588
1241.947587,0.017687488
1243.876078,0.017754417
1245.804568,0.017809204
1247.733058,0.017853913
1249.661548,0.017889085
1251.590038,0.017912489
1253.518528,0.0179232
1255.447018,0.017924737
1257.375508,0.017919681
1259.303998,0.017905421
1261.232488,0.017880028
1263.160978,0.017846015
1265.089468,0.017804662
1267.017958,0.017754301
1268.946448,0.017694095
1270.874938,0.017624344
1272.803428,0.017546122
1274.731918,0.017461592
1276.660408,0.017371838
1278.588898,0.017277224
1280.517388,0.017180922
1282.445878,0.017086986
1284.374368,0.016995549
1286.302858,0.016905403
1288.231349,0.016817268
1290.159839,0.017984217
1292.088329,0.017889606
1294.016819,0.017791119
1295.945309,0.017688121
1297.873799,0.017580807
1299.802289,0.017470464
1301.730779,0.017358067
1303.659269,0.017243506
1305.587759,0.017127272
1307.516249,0.017011478
1309.444739,0.016898348
1311.373229,0.016788016
1313.301719,0.016678749
1315.230209,0.016568928
1317.158699,0.016458281
1319.087189,0.016347372
1321.015679,0.0162359
1322.944169,0.016122019
1324.872659,0.016004305
1326.801149,0.015883743
1328.729639,0.015762761
1330.658129,0.015641626
1332.586619,0.015516703
1334.51511,0.015384115
1336.4436,0.015244373
1338.37209,0.015101142
1340.30058,0.014956557
1342.22907,0.014810116
1344.15756,0.016822032
1346.08605,0.016661272
1348.01454,0.016495156
1349.94303,0.016321931
1351.87152,0.016138605
1353.80001,0.015943399
1355.7285,0.015740075
1357.65699,0.015534677
1359.58548,0.015329653
1361.51397,0.015125314
1363.44246,0.014921987
1365.37095,0.014717525
1367.29944,0.014509044
1369.22793,0.014297825
1371.15642,0.01408799
1373.08491,0.013882679
1375.0134,0.013683284
1376.94189,0.013488204
1378.870381,0.013293124
1380.798871,0.014565115
1382.727361,0.014355828
1384.655851,0.014142012
1386.584341,0.013928438
1388.512831,0.013723251
1390.441321,0.013532534
1392.369811,0.013357503
1394.298301,0.013196202
1396.226791,0.013046283
1398.155281,0.012905794
1400.083771,0.012772146
1402.012261,0.012642648
1403.940751,0.012516123
1405.869241,0.012392888
1407.797731,0.012274094
1409.726221,0.012954841
1411.654711,0.012846016
1413.583201,0.012741709
1415.511691,0.012639669
1417.440181,0.012539828
1419.368671,0.012443289
1421.297161,0.012350432
1423.225652,0.012259343
1425.154142,0.01216759
1427.082632,0.012076461
1429.011122,0.01198925
1430.939612,0.011904622
1432.868102,0.011817576
1434.796592,0.011727518
1436.725082,0.011640414
1438.653572,0.011561423
1440.582062,0.011488143
1442.510552,0.011413558
1444.439042,0.012197536
1446.367532,0.012113415
1448.296022,0.012026248
1450.224512,0.011935036
1452.153002,0.011843512
1454.081492,0.011761146
1456.009982,0.011695093
1457.938472,0.011643414
1459.866962,0.011597128
1461.795452,0.01154818
1463.723942,0.011492767
1465.652432,0.011428146
1467.580922,0.011352361
1469.509413,0.011266277
1471.437903,0.011172164
1473.366393,0.011072002
1475.294883,0.010967096
1477.223373,0.010857412
1479.151863,0.010743209
1481.080353,0.011370006
1483.008843,0.01124959
1484.937333,0.011128464
1486.865823,0.011008559
1488.794313,0.010892154
1490.722803,0.010777657
1492.651293,0.010660899
1494.579783,0.010539125
1496.508273,0.010411764
1498.436763,0.010278995
1500.365253,0
1502.293743,0
1504.222233,0
1506.150723,0
1508.079213,0
1510.007703,0
1511.936193,0
1513.864684,0
1515.793174,0
1517.721664,0
1519.650154,0
1521.578644,0
1523.507134,0
1525.435624,0
1527.364114,0
1529.292604,0
1531.221094,0
1533.149584,0
1535.078074,0
1537.006564,0
1538.935054,0
1540.863544,0
1542.792034,0
1544.720524,0
1546.649014,0
1548.577504,0
1550.505994,0
1552.434484,0
1554.362974,0
1556.291464,0
1558.219954,0
1560.148445,0
1562.076935,0
1564.005425,0
1565.933915,0
1567.862405,0
1569.790895,0
1571.719385,0
1573.647875,0
1575.576365,0
1577.504855,0
1579.433345,0
1581.361835,0
1583.290325,0
1585.218815,0
1587.147305,0
1589.075795,0
1591.004285,0
1592.932775,0
1594.861265,0
1596.789755,0
1598.718245,0
1600.646735,0
1602.575225,0
1604.503716,0
1606.432206,0
1608.360696,0
1610.289186,0
1612.217676,0
1614.146166,0
1616.074656,0
1618.003146,0
1619.931636,0
1621.860126,0
1623.788616,0
1625.717106,0
1627.645596,0
1629.574086,0
1631.502576,0
1633.431066,0
1635.359556,0
1637.288046,0
1639.216536,0
1641.145026,0
1643.073516,0
1645.002006,0
1646.930496,0
1648.858986,0
1650.787477,0
1652.715967,0
1654.644457,0
1656.572947,0
1658.501437,0
1660.429927,0
1662.358417,0
1664.286907,0
1666.215397,0
1668.143887,0
1670.072377,0
1672.000867,0
1673.929357,0
1675.857847,0
1677.786337,0
1679.714827,0
1681.643317,0
1683.571807,0
1685.500297,0
1687.428787,0
1689.357277,0
1691.285767,0
1693.214257,0
1695.142748,0
1697.071238,0
1698.999728,0
1700.928218,0
1702.856708,0
1704.785198,0
1706.713688,0
1708.642178,0
1710.570668,0
1712.499158,0
1714.427648,0
1716.356138,0
1718.284628,0
1720.213118,0
1722.141608,0
1724.070098,0
1725.998588,0
1727.927078,0
1729.855568,0
1731.784058,0
1733.712548,0
1735.641038,0
1737.569528,0
1739.498019,0
1741.426509,0
1743.354999,0
1745.283489,0
1747.211979,0
1749.140469,0
1751.068959,0
1752.997449,0
1754.925939,0
1756.854429,0
1758.782919,0
1760.711409,0
1762.639899,0
1764.568389,0
1766.496879,0
1768.425369,0
1770.353859,0
1772.282349,0
1774.210839,0
1776.139329,0
1778.067819,0
1779.996309,0
1781.924799,0
1783.853289,0
1785.78178,0
1787.71027,0
1789.63876,0
1791.56725,0
1793.49574,0
1795.42423,0
1797.35272,0
1799.28121,0
1801.2097,0
1803.13819,0
1805.06668,0
1806.99517,0
1808.92366,0
1810.85215,0
1812.78064,0
1814.70913,0
1816.63762,0
1818.56611,0
1820.4946,0
1822.42309,0
1824.35158,0
1826.28007,0
1828.20856,0
1830.137051,0
1832.065541,0
1833.994031,0
1835.922521,0
1837.851011,0
1839.779501,0
1841.707991,0
1843.636481,0
1845.564971,0
1847.493461,0
1849.421951,0
1851.350441,0
1853.278931,0
1855.207421,0
1857.135911,0
1859.064401,0
1860.992891,0
1862.921381,0
1864.849871,0
1866.778361,0
1868.706851,0
1870.635341,0
1872.563831,0
1874.492321,0
1876.420812,0
1878.349302,0
1880.277792,0
1882.206282,0
1884.134772,0
1886.063262,0
1887.991752,0
1889.920242,0
1891.848732,0
1893.777222,0
1895.705712,0
1897.634202,0
1899.562692,0
1901.491182,0
1903.419672,0
1905.348162,0
1907.276652,0
1909.205142,0
1911.133632,0
1913.062122,0
1914.990612,0
1916.919102,0
1918.847592,0
1920.776083,0
1922.704573,0
1924.633063,0
1926.561553,0
1928.490043,0
1930.418533,0
1932.347023,0
1934.275513,0
1936.204003,0
1938.132493,0
1940.060983,0
1941.989473,0
1943.917963,0
1945.846453,0
1947.774943,0
1949.703433,0
1951.631923,0
1953.560413,0
1955.488903,0
1957.417393,0
1959.345883,0
1961.274373,0
1963.202863,0
1965.131353,0
1967.059844,0
1968.988334,0
1970.916824,0
1972.845314,0
1974.773804,0
1976.702294,0
1978.630784,0
1980.559274,0
1982.487764,0
1984.416254,0
1986.344744,0
1988.273234,0
1990.201724,0
1992.130214,0
1994.058704,0
1995.987194,0
1997.915684,0
1999.844174,0
2001.772664,0
2003.701154,0
2005.629644,0
2007.558134,0
2009.486624,0
2011.415115,0
2013.343605,0
2015.272095,0
2017.200585,0
2019.129075,0
2021.057565,0
2022.986055,0
2024.914545,0
2026.843035,0
2028.771525,0
2030.700015,0
2032.628505,0
2034.556995,0
2036.485485,0
2038.413975,0
2040.342465,0
2042.270955,0
2044.199445,0
2046.127935,0
2048.056425,0
2049.984915,0
2051.913405,0
2053.841895,0
2055.770386,0
2057.698876,0
2059.627366,0
2061.555856,0
2063.484346,0
2065.412836,0
2067.341326,0
2069.269816,0
2071.198306,0
2073.126796,0
2075.055286,0
2076.983776,0
2078.912266,0
2080.840756,0
2082.769246,0
2084.697736,0
2086.626226,0
2088.554716,0
2090.483206,0
2092.411696,0
2094.340186,0
2096.268676,0
2098.197166,0
2100.125656,0
2102.054147,0
2103.982637,0
2105.911127,0
2107.839617,0
2109.768107,0
2111.696597,0
2113.625087,0
2115.553577,0
2117.482067,0
2119.410557,0
2121.339047,0
2123.267537,0
2125.196027,0
2127.124517,0
2129.053007,0
2130.981497,0
2132.909987,0
2134.838477,0
2136.766967,0
2138.695457,0
2140.623947,0
2142.552437,0
2144.480927,0
2146.409418,0
2148.337908,0
2150.266398,0
2152.194888,0
2154.123378,0
2156.051868,0
2157.980358,0
2159.908848,0
2161.837338,0
2163.765828,0
2165.694318,0
2167.622808,0
2169.551298,0
2171.479788,0
2173.408278,0
2175.336768,0
2177.265258,0
2179.193748,0
2181.122238,0
2183.050728,0
2184.979218,0
2186.907708,0
2188.836198,0
2190.764688,0
2192.693179,0
2194.621669,0
2196.550159,0
2198.478649,0
2200.407139,0
2202.335629,0
2204.264119,0
2206.192609,0
2208.121099,0
2210.049589,0
2211.978079,0
2213.906569,0
2215.835059,0
2217.763549,0
2219.692039,0
2221.620529,0
2223.549019,0
2225.477509,0
2227.405999,0
2229.334489,0
2231.262979,0
2233.191469,0
2235.119959,0
2237.04845,0
2238.97694,0
2240.90543,0
2242.83392,0
2244.76241,0
2246.6909,0
2248.61939,0
2250.54788,0
2252.47637,0
2254.40486,0
2256.33335,0
2258.26184,0
2260.19033,0
2262.11882,0
2264.04731,0
2265.9758,0
2267.90429,0
2269.83278,0
2271.76127,0
2273.68976,0
2275.61825,0
2277.54674,0
2279.47523,0
2281.40372,0
2283.332211,0
2285.260701,0
2287.189191,0
2289.117681,0
2291.046171,0
2292.974661,0
2294.903151,0
2296.831641,0
2298.760131,0
2300.688621,0
2302.617111,0
2304.545601,0
2306.474091,0
2308.402581,0
2310.331071,0
2312.259561,0
2314.188051,0
2316.116541,0
2318.045031,0
2319.973521,0
2321.902011,0
2323.830501,0
2325.758991,0
2327.687482,0
2329.615972,0
2331.544462,0
2333.472952,0
2335.401442,0
2337.329932,0
2339.258422,0
2341.186912,0
2343.115402,0
2345.043892,0
2346.972382,0
2348.900872,0
2350.829362,0
2352.757852,0
2354.686342,0
2356.614832,0
2358.543322,0
2360.471812,0
2362.400302,0
2364.328792,0
2366.257282,0
2368.185772,0
2370.114262,0
2372.042753,0
2373.971243,0
2375.899733,0
2377.828223,0
2379.756713,0
2381.685203,0
2383.613693,0
2385.542183,0
2387.470673,0
2389.399163,0
2391.327653,0
2393.256143,0
2395.184633,0
2397.113123,0
2399.041613,0
2400.970103,0
2402.898593,0
2404.827083,0
2406.755573,0
2408.684063,0
2410.612553,0
2412.541043,0
2414.469533,0
2416.398023,0
2418.326514,0
2420.255004,0
2422.183494,0
2424.111984,0
2426.040474,0
2427.968964,0
2429.897454,0
2431.825944,0
2433.754434,0
2435.682924,0
2437.611414,0
2439.539904,0
2441.468394,0
2443.396884,0
2445.325374,0
2447.253864,0
2449.182354,0
2451.110844,0
2453.039334,0
2454.967824,0
2456.896314,0
2458.824804,0
2460.753294,0
2462.681785,0
2464.610275,0
2466.538765,0
2468.467255,0
2470.395745,0
2472.324235,0
2474.252725,0
2476.181215,0
2478.109705,0
2480.038195,0
2481.966685,0
2483.895175,0
2485.823665,0
2487.752155,0
2489.680645,0
2491.609135,0
2493.537625,0
2495.466115,0
2497.394605,0
2499.323095,0
2501.251585,0
2503.180075,0
2505.108565,0
2507.037055,0
2508.965546,0
2510.894036,0
2512.822526,0
2514.751016,0
2516.679506,0
2518.607996,0
2520.536486,0
2522.464976,0
2524.393466,0
2526.321956,0
2528.250446,0
2530.178936,0
2532.107426,0
2534.035916,0
2535.964406,0
2537.892896,0
2539.821386,0
2541.749876,0
2543.678366,0
2545.606856,0
2547.535346,0
2549.463836,0
2551.392326,0
2553.320817,0
2555.249307,0
2557.177797,0
2559.106287,0
2561.034777,0
2562.963267,0
2564.891757,0
2566.820247,0
2568.748737,0
2570.677227,0
2572.605717,0
2574.534207,0
2576.462697,0
2578.391187,0
2580.319677,0
2582.248167,0
2584.176657,0
2586.105147,0
2588.033637,0
2589.962127,0
2591.890617,0
2593.819107,0
2595.747597,0
2597.676087,0
2599.604578,0
2601.533068,0
2603.461558,0
2605.390048,0
2607.318538,0
2609.247028,0
2611.175518,0
2613.104008,0
2615.032498,0
2616.960988,0
2618.889478,0
2620.817968,0
2622.746458,0
2624.674948,0
2626.603438,0
2628.531928,0
2630.460418,0
2632.388908,0
2634.317398,0
2636.245888,0
2638.174378,0
2640.102868,0
2642.031358,0
