wavenumber,intensity
399.197439,0.348147747
401.125929,0.360214029
403.054419,0.372187299
404.982909,0.384068298
406.911399,0.395857762
408.839889,0.40755642
410.768379,0.419164982
412.696869,0.430684201
414.625359,0.442114788
416.553849,0.453457477
418.482339,0.464712955
420.410829,0.475882008
422.339319,0.486965282
424.267809,0.497963546
426.196299,0.508877428
428.124789,0.519707659
430.05328,0.530454921
431.98177,0.541119912
433.91026,0.55170332
435.83875,0.562205808
437.76724,0.572628092
439.69573,0.582970819
441.62422,0.591982801
443.55271,0.600995148
445.4812,0.61000786
447.40969,0.619020963
449.33818,0.628034472
451.26667,0.637048408
453.19516,0.646062733
455.12365,0.655077462
457.05214,0.664092596
458.98063,0.673108117
460.90912,0.682124039
462.83761,0.691140329
464.7661,0.700157059
466.69459,0.709174166
468.62308,0.718191713
470.55157,0.727209628
472.48006,0.736227943
474.408551,0.745246649
476.337041,0.754265757
478.265531,0.763285269
480.194021,0.772305169
482.122511,0.781325497
484.051001,0.79034623
485.979491,0.799367327
487.907981,0.808388824
489.836471,0.817410713
491.764961,0.826433043
493.693451,0.835455725
495.621941,0.844478847
497.550431,0.853502361
499.478921,0.862526276
501.407411,1
503.335901,0.976954576
505.264391,0.799495143
507.192881,0.533250925
509.121371,0.272469333
511.049861,0.073724929
512.978351,0
514.906841,0
516.835331,0
518.763821,0
520.692312,0.136171123
522.620802,0.122717586
524.549292,0.03784199
526.477782,0
528.406272,0
530.334762,0
532.263252,0
534.191742,0
536.120232,0
538.048722,0
539.977212,0
541.905702,0
543.834192,0
545.762682,0
547.691172,0
549.619662,0
551.548152,0
553.476642,0
555.405132,0.010756258
557.333622,0.027261491
559.262112,0.028857243
561.190602,0.015003111
563.119092,0.01268241
565.047583,0.012505571
566.976073,0.011242236
568.904563,0.010669535
570.833053,0.011617196
572.761543,0.013874986
574.690033,0.026328322
576.618523,0.027259768
578.547013,0.027534635
580.475503,0.031513979
582.403993,0.040964423
584.332483,0.051077333
586.260973,0.051045069
588.189463,0.04801431
590.117953,0.046607926
592.046443,0.047265127
593.974933,0.044350889
595.903423,0.042275138
597.831913,0.042901323
599.760403,0.04596396
601.688893,0.05054236
603.617383,0.0521665
605.545873,0.058508128
607.474363,0.058998748
609.402853,0.063754814
611.331344,0.069457871
613.259834,0.070651111
615.188324,0.07105668
617.116814,0.07072678
619.045304,0.07001537
620.973794,0.069822413
622.902284,0.070947042
624.830774,0.072905393
626.759264,0.074268088
628.687754,0.074956536
630.616244,0.080129232
632.544734,0.084891443
634.473224,0.089140241
636.401714,0.092455589
638.330204,0.094604384
640.258694,0.096268795
642.187184,0.088708642
644.115674,0.090430648
646.044164,0.091309395
647.972654,0.091398964
649.901144,0.091492011
651.829634,0.092449508
653.758124,0.094566115
655.686615,0.098117909
657.615105,0.100924548
659.543595,0.10309776
661.472085,0.104505671
663.400575,0.10537061
665.329065,0.105881456
667.257555,0.106102965
669.186045,0.106197384
671.114535,0.106527759
673.043025,0.107349165
674.971515,0.108435838
676.900005,0.109212207
678.828495,0.109459313
680.756985,0.110074533
682.685475,0.110474096
684.613965,0.111019451
686.542455,0.111441959
688.470945,0.111787042
690.399435,0.112200108
692.327925,0.114267878
694.256415,0.114529655
696.184905,0.114802379
698.113395,0.115363653
700.041885,0.116449685
701.970376,0.118041443
703.898866,0.119794642
705.827356,0.121407453
707.755846,0.122834162
709.684336,0.123988265
711.612826,0.124727266
713.541316,0.125151179
715.469806,0.125438496
717.398296,0.125594402
719.326786,0.125651805
721.255276,0.126463297
723.183766,0.126747889
725.112256,0.127203213
727.040746,0.127820226
728.969236,0.128614014
730.897726,0.129645818
732.826216,0.130877037
734.754706,0.131994097
736.683196,0.132589938
738.611686,0.132482329
740.540176,0.131988383
742.468666,0.1310321
744.397156,0.130102823
746.325647,0.129423311
748.254137,0.129218972
750.182627,0.129680396
752.111117,0.130712855
754.039607,0.13203643
755.968097,0.133210966
757.896587,0.13382615
759.825077,0.124122191
761.753567,0.123326548
763.682057,0.122344447
765.610547,0.121545697
767.539037,0.121032932
769.467527,0.120788011
771.396017,0.120691934
773.324507,0.120503047
775.252997,0.1200355
777.181487,0.119335282
779.109977,0.118665592
781.038467,0.118310527
782.966957,0.118311219
784.895447,0.118396425
786.823937,0.118244671
788.752427,0.117853365
790.680918,0.117524377
792.609408,0.117419585
794.537898,0.117370792
796.466388,0.124665308
798.394878,0.12395892
800.323368,0.124171005
802.251858,0.124389314
804.180348,0.124265457
806.108838,0.123721316
808.037328,0.123081604
809.965818,0.122809979
811.894308,0.123015401
813.822798,0.123388529
815.751288,0.123706939
817.679778,0.124103521
819.608268,0.1246404
821.536758,0.125255464
823.465248,0.125681995
825.393738,0.125777842
827.322228,0.125526452
829.250718,0.124996025
831.179208,0.124306302
833.107698,0.123546275
835.036188,0.122749879
836.964679,0.121962004
838.893169,0.121264898
840.821659,0.120718537
842.750149,0.120320571
844.678639,0.120013358
846.607129,0.119727316
848.535619,0.119456538
850.464109,0.11923239
852.392599,0.119000631
854.321089,0.118681587
856.249579,0.118306993
858.178069,0.117914469
860.106559,0.117427202
862.035049,0.116762689
863.963539,0.115862227
865.892029,0.11487545
867.820519,0.113867082
869.749009,0.112874308
871.677499,0.111986889
873.605989,0.1113291
875.534479,0.110834432
877.462969,0.110223095
879.391459,0.109364433
881.31995,0.108428689
883.24844,0.107592852
885.17693,0.106861606
887.10542,0.106204873
889.03391,0.105643063
890.9624,0.10514381
892.89089,0.104542604
894.81938,0.103606071
896.74787,0.101392941
898.67636,0.099598896
900.60485,0.097673835
902.53334,0.095738258
904.46183,0.093788396
906.39032,0.091924697
908.31881,0.090322233
910.2473,0.089000449
912.17579,0.0878597
914.10428,0.086881419
916.03277,0.086122447
917.96126,0.085573922
919.88975,0.085077284
921.81824,0.084388507
923.74673,0.083416676
925.67522,0.080855659
927.603711,0.079745769
929.532201,0.078599877
931.460691,0.077302005
933.389181,0.075923665
935.317671,0.074659842
937.246161,0.073524865
939.174651,0.072361695
941.103141,0.071160838
943.031631,0.070086496
944.960121,0.069208505
946.888611,0.068384339
948.817101,0.067352143
950.745591,0.065931653
952.674081,0.064180643
954.602571,0.062250209
956.531061,0.060127485
958.459551,0.057734657
960.388041,0.055185002
962.316531,0.052731882
964.245021,0.050558343
966.173511,0.048667715
968.102001,0.046906915
970.030491,0.047264259
971.958982,0.045478067
973.887472,0.043625268
975.815962,0.041536071
977.744452,0.039027432
979.672942,0.036195567
981.601432,0.037524301
983.529922,0.034952225
985.458412,0.032441892
987.386902,0.029799811
989.315392,0.020394697
991.243882,0.017385456
993.172372,0.016313341
995.100862,0.013276985
997.029352,0.012588339
998.957842,0.010437436
1000.886332,0
1002.814822,0
1004.743312,0
1006.671802,0
1008.600292,0
1010.528782,0
1012.457272,0
1014.385762,0
1016.314252,0
1018.242743,0
1020.171233,0
1022.099723,0
1024.028213,0
1025.956703,0
1027.885193,0
1029.813683,0
1031.742173,0
1033.670663,0
1035.599153,0
1037.527643,0
1039.456133,0
1041.384623,0
1043.313113,0
1045.241603,0
1047.170093,0
1049.098583,0
1051.027073,0
1052.955563,0
1054.884053,0
1056.812543,0
1058.741033,0
1060.669523,0
1062.598014,0
1064.526504,0
1066.454994,0
1068.383484,0
1070.311974,0
1072.240464,0
1074.168954,0
1076.097444,0
1078.025934,0
1079.954424,0
1081.882914,0
1083.811404,0
1085.739894,0
1087.668384,0
1089.596874,0
1091.525364,0
1093.453854,0
1095.382344,0
1097.310834,0
1099.239324,0
1101.167814,0
1103.096304,0
1105.024794,0
1106.953285,0
1108.881775,0
1110.810265,0
1112.738755,0
1114.667245,0
1116.595735,0
1118.524225,0
1120.452715,0
1122.381205,0
1124.309695,0
1126.238185,0
1128.166675,0
1130.095165,0
1132.023655,0
1133.952145,0
1135.880635,0
1137.809125,0
1139.737615,0
1141.666105,0
1143.594595,0
1145.523085,0
1147.451575,0
1149.380065,0
1151.308555,0
1153.237046,0
1155.165536,0
1157.094026,0
1159.022516,0
1160.951006,0
1162.879496,0
1164.807986,0
1166.736476,0
1168.664966,0
1170.593456,0
1172.521946,0
1174.450436,0
1176.378926,0
1178.307416,0
1180.235906,0
1182.164396,0
1184.092886,0
1186.021376,0
1187.949866,0.009604983
1189.878356,0.010206266
1191.806846,0.010280482
1193.735336,0.011109704
1195.663826,0.010768744
1197.592317,0.011085866
1199.520807,0.011176367
1201.449297,0.011208048
1203.377787,0.01129177
1205.306277,0.011397453
1207.234767,0.011453562
1209.163257,0.011461294
1211.091747,0.011467112
1213.020237,0.011486162
1214.948727,0.011486889
1216.877217,0.011462988
1218.805707,0.011480036
1220.734197,0.01159305
1222.662687,0.011093918
1224.591177,0.011212581
1226.519667,0.011217513
1228.448157,0.01111813
1230.376647,0.011029404
1232.305137,0.011081188
1234.233627,0.011246052
1236.162117,0.011380466
1238.090607,0.011390614
1240.019097,0.011254262
1241.947587,0.011605044
1243.876078,0.011192333
1245.804568,0.010675097
1247.733058,0.011052476
1249.661548,0.010647023
1251.590038,0.010426355
1253.518528,0.010273407
1255.447018,0.01005647
1257.375508,0.010466098
1259.303998,0.010233744
1261.232488,0.01004332
1263.160978,0.009875535
1265.089468,0.009713372
1267.017958,0.00953441
1268.946448,0
1270.874938,0
1272.803428,0
1274.731918,0
1276.660408,0
1278.588898,0
1280.517388,0
1282.445878,0
1284.374368,0
1286.302858,0
1288.231349,0
1290.159839,0
1292.088329,0
1294.016819,0
1295.945309,0
1297.873799,0
1299.802289,0
1301.730779,0
1303.659269,0
1305.587759,0
1307.516249,0
1309.444739,0
1311.373229,0
1313.301719,0
1315.230209,0
1317.158699,0
1319.087189,0
1321.015679,0
1322.944169,0
1324.872659,0
1326.801149,0
1328.729639,0
1330.658129,0
1332.586619,0
1334.51511,0
1336.4436,0
1338.37209,0
1340.30058,0
1342.22907,0
1344.15756,0
1346.08605,0
1348.01454,0
1349.94303,0
1351.87152,0
1353.80001,0
1355.7285,0
1357.65699,0
1359.58548,0
1361.51397,0
1363.44246,0
1365.37095,0
1367.29944,0
1369.22793,0
1371.15642,0
1373.08491,0
1375.0134,0
1376.94189,0
1378.870381,0
1380.798871,0
1382.727361,0
1384.655851,0
1386.584341,0
1388.512831,0
1390.441321,0
1392.369811,0
1394.298301,0
1396.226791,0
1398.155281,0
1400.083771,0
1402.012261,0
1403.940751,0
1405.869241,0
1407.797731,0
1409.726221,0
1411.654711,0
1413.583201,0
1415.511691,0
1417.440181,0
1419.368671,0
1421.297161,0
1423.225652,0
1425.154142,0
1427.082632,0
1429.011122,0
1430.939612,0
1432.868102,0
1434.796592,0
1436.725082,0
1438.653572,0
1440.582062,0
1442.510552,0
1444.439042,0
1446.367532,0
1448.296022,0
1450.224512,0
1452.153002,0
1454.081492,0
1456.009982,0
1457.938472,0
1459.866962,0
1461.795452,0
1463.723942,0
1465.652432,0
1467.580922,0
1469.509413,0
1471.437903,0
1473.366393,0
1475.294883,0
1477.223373,0
1479.151863,0
1481.080353,0
1483.008843,0
1484.937333,0
1486.865823,0
1488.794313,0
1490.722803,0
1492.651293,0
1494.579783,0
1496.508273,0
1498.436763,0
1500.365253,0
1502.293743,0
1504.222233,0
1506.150723,0
1508.079213,0
1510.007703,0
1511.936193,0
1513.864684,0
1515.793174,0
1517.721664,0
1519.650154,0
1521.578644,0
1523.507134,0
1525.435624,0
1527.364114,0
1529.292604,0
1531.221094,0
1533.149584,0
1535.078074,0
1537.006564,0
1538.935054,0
1540.863544,0
1542.792034,0
1544.720524,0
1546.649014,0
1548.577504,0
1550.505994,0
1552.434484,0
1554.362974,0
1556.291464,0
1558.219954,0
1560.148445,0
1562.076935,0
1564.005425,0
1565.933915,0
1567.862405,0
1569.790895,0
1571.719385,0
1573.647875,0
1575.576365,0
1577.504855,0
1579.433345,0
1581.361835,0
1583.290325,0
1585.218815,0
1587.147305,0
1589.075795,0
1591.004285,0
1592.932775,0
1594.861265,0
1596.789755,0
1598.718245,0
1600.646735,0
1602.575225,0
1604.503716,0
1606.432206,0
1608.360696,0
1610.289186,0
1612.217676,0
1614.146166,0
1616.074656,0
1618.003146,0
1619.931636,0
1621.860126,0
1623.788616,0
1625.717106,0
1627.645596,0
1629.574086,0
1631.502576,0
1633.431066,0
1635.359556,0
1637.288046,0
1639.216536,0
1641.145026,0
1643.073516,0
1645.002006,0
1646.930496,0
1648.858986,0
1650.787477,0
1652.715967,0
1654.644457,0
1656.572947,0
1658.501437,0
1660.429927,0
1662.358417,0
1664.286907,0
1666.215397,0
1668.143887,0
1670.072377,0
1672.000867,0
1673.929357,0
1675.857847,0
1677.786337,0
1679.714827,0
1681.643317,0
1683.571807,0
1685.500297,0
1687.428787,0
1689.357277,0
1691.285767,0
1693.214257,0
1695.142748,0
1697.071238,0
1698.999728,0
1700.928218,0
1702.856708,0
1704.785198,0
1706.713688,0
1708.642178,0
1710.570668,0
1712.499158,0
1714.427648,0
1716.356138,0
1718.284628,0
1720.213118,0
1722.141608,0
1724.070098,0
1725.998588,0
1727.927078,0
1729.855568,0
1731.784058,0
1733.712548,0
1735.641038,0
1737.569528,0
1739.498019,0
1741.426509,0
1743.354999,0
1745.283489,0
1747.211979,0
1749.140469,0
1751.068959,0
1752.997449,0
1754.925939,0
1756.854429,0
1758.782919,0
1760.711409,0
1762.639899,0
1764.568389,0
1766.496879,0
1768.425369,0
1770.353859,0
1772.282349,0
1774.210839,0
1776.139329,0
1778.067819,0
1779.996309,0
1781.924799,0
1783.853289,0
1785.78178,0
1787.71027,0
1789.63876,0
1791.56725,0
1793.49574,0
1795.42423,0
1797.35272,0
1799.28121,0
1801.2097,0
1803.13819,0
1805.06668,0
1806.99517,0
1808.92366,0
1810.85215,0
1812.78064,0
1814.70913,0
1816.63762,0
1818.56611,0
1820.4946,0
1822.42309,0
1824.35158,0
1826.28007,0
1828.20856,0
1830.137051,0
1832.065541,0
1833.994031,0
1835.922521,0
1837.851011,0
1839.779501,0
1841.707991,0
1843.636481,0
1845.564971,0
1847.493461,0
1849.421951,0
1851.350441,0
1853.278931,0
1855.207421,0
1857.135911,0
1859.064401,0
1860.992891,0
1862.921381,0
1864.849871,0
1866.778361,0
1868.706851,0
1870.635341,0
1872.563831,0
1874.492321,0
1876.420812,0
1878.349302,0
1880.277792,0.009876756
1882.206282,0.010130518
1884.134772,0.010117687
1886.063262,0.010145989
1887.991752,0.010267146
1889.920242,0.010423433
1891.848732,0.010477192
1893.777222,0.010777085
1895.705712,0.011159398
1897.634202,0.011530779
1899.562692,0.011222232
1901.491182,0.011277099
1903.419672,0.01134109
1905.348162,0.011468882
1907.276652,0.01153615
1909.205142,0.011480365
1911.133632,0.011394493
1913.062122,0.011452483
1914.990612,0.011775551
1916.919102,0.012020124
1918.847592,0.01254701
1920.776083,0.01289517
1922.704573,0.013474923
1924.633063,0.013310137
1926.561553,0.013363562
1928.490043,0.012976818
1930.418533,0.013153625
1932.347023,0.013587113
1934.275513,0.014389091
1936.204003,0.015724373
1938.132493,0.016432414
1940.060983,0.017548774
1941.989473,0.01800064
1943.917963,0.01767291
1945.846453,0.017035644
1947.774943,0.016947287
1949.703433,0.017938606
1951.631923,0.018515438
1953.560413,0.020459733
1955.488903,0.022121385
1957.417393,0.0229153
1959.345883,0.022779885
1961.274373,0.022038097
1963.202863,0.021145153
1965.131353,0.020318317
1967.059844,0.019904728
1968.988334,0.020542651
1970.916824,0.022127486
1972.845314,0.024035188
1974.773804,0.025573736
1976.702294,0.026816141
1978.630784,0.027292895
1980.559274,0.027509918
1982.487764,0.02723331
1984.416254,0.025959366
1986.344744,0.02452304
1988.273234,0.023099075
1990.201724,0.021581858
1992.130214,0.018999911
1994.058704,0.017423821
1995.987194,0.015664721
1997.915684,0.014704028
1999.844174,0.014279454
2001.772664,0.016305556
2003.701154,0.01844584
2005.629644,0.020054472
2007.558134,0.02164027
2009.486624,0.022143632
2011.415115,0.021343066
2013.343605,0.020393071
2015.272095,0.018936315
2017.200585,0.018266538
2019.129075,0.018640935
2021.057565,0.019372465
2022.986055,0.019519524
2024.914545,0.018773034
2026.843035,0.01907348
2028.771525,0.017653066
2030.700015,0.016392585
2032.628505,0.016793466
2034.556995,0.015916519
2036.485485,0.017057457
2038.413975,0.018450944
2040.342465,0.019759909
2042.270955,0.0195704
2044.199445,0.021238282
2046.127935,0.021565781
2048.056425,0.021704185
2049.984915,0.021647009
2051.913405,0.020020435
2053.841895,0.018300884
2055.770386,0.018325639
2057.698876,0.016591006
2059.627366,0.016252198
2061.555856,0.014905389
2063.484346,0.014392327
2065.412836,0.01379694
2067.341326,0.012579806
2069.269816,0.012810597
2071.198306,0.012827655
2073.126796,0.012540155
2075.055286,0.013541188
2076.983776,0.013764409
2078.912266,0.014594138
2080.840756,0.014583722
2082.769246,0.013501743
2084.697736,0.012669414
2086.626226,0.012621581
2088.554716,0.011888982
2090.483206,0.010684111
2092.411696,0.010604663
2094.340186,0.010608169
2096.268676,0.011793597
2098.197166,0.01216314
2100.125656,0.011901367
2102.054147,0.011869243
2103.982637,0.012474042
2105.911127,0.012142865
2107.839617,0.012082824
2109.768107,0.012365419
2111.696597,0.011773108
2113.625087,0.012001476
2115.553577,0.011856227
2117.482067,0.012102692
2119.410557,0.01159704
2121.339047,0.010330178
2123.267537,0
2125.196027,0
2127.124517,0
2129.053007,0
2130.981497,0.010128978
2132.909987,0.010523008
2134.838477,0.010788381
2136.766967,0.0117613
2138.695457,0.012010301
2140.623947,0.012284963
2142.552437,0.013408108
2144.480927,0.012643333
2146.409418,0.01304268
2148.337908,0.011949571
2150.266398,0.012501244
2152.194888,0.011889671
2154.123378,0.012605605
2156.051868,0.014816093
2157.980358,0.016420501
2159.908848,0.028896195
2161.837338,0.032740463
2163.765828,0.034260222
2165.694318,0.034705913
2167.622808,0.033703553
2169.551298,0.032455779
2171.479788,0.029364729
2173.408278,0.017511798
2175.336768,0.015679309
2177.265258,0.014196843
2179.193748,0.013841061
2181.122238,0.013685191
2183.050728,0.013618329
2184.979218,0.014388696
2186.907708,0.016632936
2188.836198,0.01665094
2190.764688,0.017245707
2192.693179,0.01702744
2194.621669,0.016620294
2196.550159,0.016120634
2198.478649,0.017066716
2200.407139,0.016360855
2202.335629,0.016092781
2204.264119,0.016039743
2206.192609,0.015614907
2208.121099,0.014616639
2210.049589,0.014684357
2211.978079,0.013860621
2213.906569,0.013616289
2215.835059,0.01361614
2217.763549,0.013485797
2219.692039,0.013349661
2221.620529,0.013486752
2223.549019,0.013900707
2225.477509,0.01452634
2227.405999,0.015433797
2229.334489,0.015447726
2231.262979,0.017046864
2233.191469,0.016622063
2235.119959,0.016888666
2237.04845,0.017496356
2238.97694,0.015370524
2240.90543,0.014472032
2242.83392,0.014157938
2244.76241,0.013396523
2246.6909,0.013272352
2248.61939,0.013529637
2250.54788,0.013838725
2252.47637,0.013833245
2254.40486,0.013401224
2256.33335,0.01266721
2258.26184,0.013071864
2260.19033,0.012197205
2262.11882,0.012809623
2264.04731,0.012383174
2265.9758,0.012045236
2267.90429,0.011836088
2269.83278,0.011881742
2271.76127,0.012249569
2273.68976,0.012977148
2275.61825,0.012661651
2277.54674,0.013427479
2279.47523,0.013710527
2281.40372,0.013443441
2283.332211,0.012627012
2285.260701,0.012635335
2287.189191,0.011290474
2289.117681,0.01112299
2291.046171,0.01052707
2292.974661,0.009790338
2294.903151,0
2296.831641,0
2298.760131,0
2300.688621,0
2302.617111,0
2304.545601,0
2306.474091,0
2308.402581,0
2310.331071,0
2312.259561,0
2314.188051,0
2316.116541,0
2318.045031,0
2319.973521,0
2321.902011,0
2323.830501,0
2325.758991,0
2327.687482,0
2329.615972,0
2331.544462,0
2333.472952,0
2335.401442,0
2337.329932,0
2339.258422,0
2341.186912,0
2343.115402,0
2345.043892,0
2346.972382,0
2348.900872,0
2350.829362,0
2352.757852,0
2354.686342,0
2356.614832,0
2358.543322,0
2360.471812,0
2362.400302,0
2364.328792,0
2366.257282,0
2368.185772,0
2370.114262,0
2372.042753,0
2373.971243,0
2375.899733,0
2377.828223,0
2379.756713,0
2381.685203,0
2383.613693,0
2385.542183,0
2387.470673,0
2389.399163,0
2391.327653,0
2393.256143,0
2395.184633,0
2397.113123,0
2399.041613,0
2400.970103,0
2402.898593,0
2404.827083,0
2406.755573,0
2408.684063,0
2410.612553,0
2412.541043,0
2414.469533,0
2416.398023,0
2418.326514,0
2420.255004,0
2422.183494,0
2424.111984,0
2426.040474,0
2427.968964,0
2429.897454,0
2431.825944,0
2433.754434,0
2435.682924,0
2437.611414,0
2439.539904,0
2441.468394,0
2443.396884,0
2445.325374,0
2447.253864,0
2449.182354,0
2451.110844,0
2453.039334,0
2454.967824,0
2456.896314,0
2458.824804,0
2460.753294,0
2462.681785,0
2464.610275,0
2466.538765,0
