wavenumber,intensity
599.760403,0.239106598
600.242526,0.331937455
600.724648,0.336033979
601.206771,0.382130268
601.688893,0.414984736
602.171016,0.441434169
602.653138,0.486666051
603.135261,0.524085251
603.617383,0.559521385
604.099506,0.603897693
604.581628,0.651335819
605.063751,0.683303947
605.545873,0.695520427
606.027996,0.701165211
606.510118,0.713837141
606.992241,0.741385478
607.474363,0.780950681
607.956486,0.818394573
608.438608,0.845694696
608.920731,0.862772118
609.402853,0.858740919
609.884976,0.820154236
610.367099,0.756358409
610.849221,0.692475231
611.331344,0.647890225
611.813466,0.633394033
612.295589,0.649566477
612.777711,0.684851041
613.259834,0.724093542
613.741956,0.75331218
614.224079,0.76275156
614.706201,0.75417326
615.188324,0.736005351
615.670446,0.711148778
616.152569,0.679915913
616.634691,0.648594217
617.116814,0.624118101
617.598936,0.603540687
618.081059,0.575599104
618.563181,0.539513191
619.045304,0.512321573
619.527426,0.503973685
620.009549,0.501287716
620.491671,0.493238169
620.973794,0.489342217
621.455916,0.504147177
621.938039,0.536688454
622.420161,0.569100046
622.902284,0.581224623
623.384406,0.567771936
623.866529,0.538178657
624.348651,0.499595239
624.830774,0.455205282
625.312896,0.415347505
625.795019,0.394096048
626.277141,0.397097951
626.759264,0.419533819
627.241386,0.450083569
627.723509,0.477348696
628.205631,0.497460637
628.687754,0.513574077
629.169876,0.527997894
629.651999,0.538204356
630.134121,0.538548314
630.616244,0.527325919
631.098366,0.510245669
631.580489,0.494520217
632.062611,0.483698965
632.544734,0.48058921
633.026857,0.489173114
633.508979,0.510520031
633.991102,0.539011578
634.473224,0.566037582
634.955347,0.585249392
635.437469,0.594689986
635.919592,0.595344298
636.401714,0.589112569
636.883837,0.576013568
637.365959,0.554682407
637.848082,0.526596973
638.330204,0.496426723
638.812327,0.46747873
639.294449,0.440620323
639.776572,0.41596113
640.258694,0.393004298
640.740817,0.370898222
641.222939,0.351003378
641.705062,0.336339732
642.187184,0.328486853
642.669307,0.326342956
643.151429,0.327091501
643.633552,0.327547378
644.115674,0.324466723
644.597797,0.316355956
645.079919,0.305013733
645.562042,0.292572804
646.044164,0.27875738
646.526287,0.263565567
647.008409,0.248045981
647.490532,0.23133616
647.972654,0.21144559
648.454777,0.18912636
648.936899,0.168060606
649.419022,0.132909113
649.901144,0.122466428
650.383267,0.116036267
650.865389,0.110650107
651.347512,0.104291803
651.829634,0.097426227
652.311757,0.091077844
652.793879,0.084148783
653.276002,0.094216739
653.758124,0.081534403
654.240247,0.096894196
654.722369,0.074001669
655.204492,0
655.686615,0
656.168737,0
656.65086,0
657.132982,0
657.615105,0
658.097227,0
658.57935,0
659.061472,0
659.543595,0
660.025717,0
660.50784,0
660.989962,0
661.472085,0
661.954207,0
662.43633,0
662.918452,0
663.400575,0
663.882697,0
664.36482,0
664.846942,0
665.329065,0
665.811187,0
666.29331,0
666.775432,0
667.257555,0.074630041
667.739677,0.097747725
668.2218,0.076755116
668.703922,0.10830702
669.186045,0.189442794
669.668167,0.220708125
670.15029,0.249720621
670.632412,0.274324463
671.114535,0.292085551
671.596657,0.25526462
672.07878,0.262320122
672.560902,0.266543699
673.043025,0.267943311
673.525147,0.267629746
674.00727,0.268006149
674.489392,0.270214395
674.971515,0.273642183
675.453637,0.277500041
675.93576,0.281791489
676.417882,0.287675672
676.900005,0.296697632
677.382127,0.309889698
677.86425,0.326558644
678.346373,0.34358298
678.828495,0.355866448
679.310618,0.360492356
679.79274,0.360359736
680.274863,0.361622411
680.756985,0.36775033
681.239108,0.377711762
681.72123,0.389269466
682.203353,0.40121407
682.685475,0.411558508
683.167598,0.417247429
683.64972,0.417538732
684.131843,0.416227567
684.613965,0.418614567
685.096088,0.426638867
685.57821,0.438209555
686.060333,0.448896487
686.542455,0.455527293
687.024578,0.457476786
687.5067,0.456214931
687.988823,0.45401208
688.470945,0.452495113
688.953068,0.453079242
689.43519,0.458089573
689.917313,0.468658572
690.399435,0.482443844
690.881558,0.495713469
691.36368,0.505897083
691.845803,0.512062574
692.327925,0.51538236
692.810048,0.518801333
693.29217,0.52529052
693.774293,0.536518762
694.256415,0.552306436
694.738538,0.570986691
695.22066,0.591750763
695.702783,0.615197702
696.184905,0.640355412
696.667028,0.664203523
697.14915,0.684476616
697.631273,0.700142413
698.113395,0.709865642
698.595518,0.712125018
699.07764,0.705576388
699.559763,0.689275306
700.041885,0.663963904
700.524008,0.632430653
701.006131,0.59773787
701.488253,0.561108802
701.970376,0.521277278
702.452498,0.477144385
702.934621,0.430269913
703.416743,0.38423232
703.898866,0.341596212
704.380988,0.302869981
704.863111,0.26695083
705.345233,0.234024826
705.827356,0.245401669
706.309478,0.221295616
706.791601,0.199821755
707.273723,0.179214086
707.755846,0.119897767
708.237968,0.101778029
708.720091,0.085965384
709.202213,0.095012565
709.684336,0.084813136
710.166458,0.076113364
710.648581,0.082721027
711.130703,0.070071429
711.612826,0
712.094948,0
712.577071,0
713.059193,0
713.541316,0
714.023438,0
714.505561,0
714.987683,0
715.469806,0
715.951928,0
716.434051,0
716.916173,0
717.398296,0
717.880418,0
718.362541,0
718.844663,0
719.326786,0
719.808908,0
720.291031,0
720.773153,0
721.255276,0
721.737398,0
722.219521,0
722.701643,0
723.183766,0
723.665889,0
724.148011,0
724.630134,0
725.112256,0
725.594379,0
726.076501,0
726.558624,0
727.040746,0
727.522869,0
728.004991,0
728.487114,0
728.969236,0
729.451359,0
729.933481,0
730.415604,0
730.897726,0
731.379849,0
731.861971,0
732.344094,0
732.826216,0
733.308339,0
733.790461,0
734.272584,0
734.754706,0
735.236829,0
735.718951,0
736.201074,0
736.683196,0
737.165319,0
737.647441,0
738.129564,0
738.611686,0
739.093809,0
739.575931,0
740.058054,0
740.540176,0
741.022299,0
741.504421,0
741.986544,0
742.468666,0
742.950789,0
743.432911,0
743.915034,0
744.397156,0
744.879279,0
745.361401,0
745.843524,0
746.325647,0
746.807769,0
747.289892,0
747.772014,0
748.254137,0
748.736259,0
749.218382,0
749.700504,0
750.182627,0
750.664749,0
751.146872,0
751.628994,0
752.111117,0
752.593239,0
753.075362,0
753.557484,0
754.039607,0
754.521729,0
755.003852,0
755.485974,0
755.968097,0
756.450219,0
756.932342,0
757.414464,0
757.896587,0
758.378709,0
758.860832,0
759.342954,0
759.825077,0
760.307199,0
760.789322,0
761.271444,0
761.753567,0
762.235689,0
762.717812,0
763.199934,0
763.682057,0
764.164179,0
764.646302,0
765.128424,0
765.610547,0
766.092669,0
766.574792,0
767.056914,0
767.539037,0
768.021159,0
768.503282,0
768.985405,0
769.467527,0
769.94965,0
770.431772,0
770.913895,0
771.396017,0
771.87814,0
772.360262,0
772.842385,0
773.324507,0
773.80663,0
774.288752,0
774.770875,0
775.252997,0
775.73512,0
776.217242,0
776.699365,0
777.181487,0
777.66361,0
778.145732,0
778.627855,0
779.109977,0
779.5921,0
780.074222,0
780.556345,0
781.038467,0
781.52059,0
782.002712,0
782.484835,0
782.966957,0
783.44908,0
783.931202,0
784.413325,0
784.895447,0
785.37757,0
785.859692,0
786.341815,0
786.823937,0
787.30606,0
787.788182,0
788.270305,0
788.752427,0
789.23455,0
789.716672,0
790.198795,0
790.680918,0
791.16304,0
791.645163,0
792.127285,0
792.609408,0
793.09153,0
793.573653,0
794.055775,0
794.537898,0
795.02002,0
795.502143,0
795.984265,0
796.466388,0
796.94851,0
797.430633,0
797.912755,0
798.394878,0
798.877,0
799.359123,0
799.841245,0
800.323368,0
800.80549,0
801.287613,0
801.769735,0
802.251858,0
802.73398,0
803.216103,0
803.698225,0
804.180348,0
804.66247,0
805.144593,0
805.626715,0
806.108838,0
806.59096,0
807.073083,0
807.555205,0
808.037328,0
808.51945,0
809.001573,0
809.483695,0
809.965818,0
810.44794,0
810.930063,0
811.412185,0
811.894308,0
812.37643,0
812.858553,0
813.340676,0
813.822798,0
814.304921,0
814.787043,0
815.269166,0
815.751288,0
816.233411,0
816.715533,0
817.197656,0
817.679778,0
818.161901,0
818.644023,0
819.126146,0
819.608268,0
820.090391,0
820.572513,0
821.054636,0
821.536758,0
822.018881,0
822.501003,0
822.983126,0.069052069
823.465248,0.079587177
823.947371,0.087936406
824.429493,0.078511976
824.911616,0.086832531
825.393738,0.095137868
825.875861,0.103487719
826.357983,0.090687161
826.840106,0.09685538
827.322228,0.101597523
827.804351,0.106426026
828.286473,0.11190492
828.768596,0.117606412
829.250718,0.122800722
829.732841,0.12673438
830.214963,0.129393101
830.697086,0.131689783
831.179208,0.134649829
831.661331,0.138582161
832.143453,0.18130837
832.625576,0.186578595
833.107698,0.191212466
833.589821,0.193782466
834.071943,0.19328643
834.554066,0.189626186
835.036188,0.184353642
835.518311,0.179712024
836.000434,0.13991989
836.482556,0.138959019
836.964679,0.139231228
837.446801,0.139992917
837.928924,0.140739313
838.411046,0.177506891
838.893169,0.140278661
839.375291,0.137566648
839.857414,0.132412668
840.339536,0.125005734
840.821659,0.11657504
841.303781,0.109338153
841.785904,0.104779872
842.268026,0.102922918
842.750149,0.103448547
843.232271,0.105540129
843.714394,0.107365523
844.196516,0.107140451
844.678639,0.104390735
845.160761,0.099786988
845.642884,0.094854965
846.125006,0.091137693
846.607129,0.089303318
847.089251,0.089475223
847.571374,0.091364763
848.053496,0.09346103
848.535619,0.093449292
849.017741,0.090027369
849.499864,0.102289839
849.981986,0.094174116
850.464109,0.086552088
850.946231,0.080495541
851.428354,0.091179102
851.910476,0.087438142
852.392599,0.085596277
852.874721,0.085949597
853.356844,0.087897596
853.838966,0.090890107
854.321089,0.079138506
854.803211,0.082858038
855.285334,0.086260244
855.767456,0.08805133
856.249579,0.087133892
856.731701,0.08441293
857.213824,0.082029028
857.695946,0.081368297
858.178069,0.082933575
858.660192,0.08615594
859.142314,0.089216573
859.624437,0.090514259
860.106559,0.090186198
860.588682,0.088762862
861.070804,0.086037024
861.552927,0.082366943
862.035049,0.078953686
862.517172,0.076866567
862.999294,0.076824063
863.481417,0.07894067
863.963539,0.082779217
864.445662,0.087742158
864.927784,0.09283226
865.409907,0.095963746
865.892029,0.095442638
866.374152,0.091932143
866.856274,0.087883718
867.338397,0.085653583
867.820519,0.086753675
868.302642,0.090854388
868.784764,0.095484567
869.266887,0.09816516
869.749009,0.09814368
870.231132,0.095670322
870.713254,0.091450731
871.195377,0.087507065
871.677499,0.086694911
872.159622,0.090442317
872.641744,0.097576875
873.123867,0.08761957
873.605989,0.091547774
874.088112,0.091624679
874.570234,0.090075743
875.052357,0.088919174
875.534479,0.088494483
876.016602,0.088769117
876.498724,0.090037684
876.980847,0.091980446
877.462969,0.093312984
877.945092,0.092937891
878.427214,0.090782156
878.909337,0.088005392
879.391459,0.102889912
879.873582,0.102726187
880.355704,0.087665474
880.837827,0.090932495
881.31995,0.095580974
881.802072,0.100453307
882.284195,0.103655667
882.766317,0.104784925
883.24844,0.104919769
883.730562,0.104309902
884.212685,0.101590467
884.694807,0.096412618
885.17693,0.09085328
885.659052,0.087914596
886.141175,0.089092706
886.623297,0.093414555
887.10542,0.099080066
887.587542,0.104763865
888.069665,0.109015236
888.551787,0.109993645
889.03391,0.107260433
889.516032,0.103257187
889.998155,0.101519951
890.480277,0.104013149
890.9624,0.110079528
891.444522,0.117766539
891.926645,0.124980015
892.408767,0.129416076
892.89089,0.129847537
893.373012,0.127890943
893.855135,0.12709122
894.337257,0.130054271
894.81938,0.136509703
895.301502,0.121180141
895.783625,0.126965211
896.265747,0.130294398
896.74787,0.131883705
897.229992,0.132974661
897.712115,0.135038241
898.194237,0.139091947
898.67636,0.144819002
899.158482,0.151157531
899.640605,0.156999761
900.122727,0.16091768
900.60485,0.162367032
901.086972,0.163392672
901.569095,0.167084571
902.051217,0.175144147
902.53334,0.187327651
903.015462,0.201548321
903.497585,0.214720161
903.979708,0.224814635
904.46183,0.231746887
904.943953,0.23625315
905.426075,0.239431852
905.908198,0.24300908
906.39032,0.248237707
906.872443,0.255194727
907.354565,0.26375778
907.836688,0.273679332
908.31881,0.284043011
908.800933,0.293460262
909.283055,0.301380399
909.765178,0.30823568
910.2473,0.314259013
910.729423,0.318665324
911.211545,0.320145998
911.693668,0.318112352
912.17579,0.313515751
912.657913,0.308119274
913.140035,0.303389936
913.622158,0.300130078
914.10428,0.298960949
914.586403,0.300216611
915.068525,0.30293682
915.550648,0.305226743
916.03277,0.306036331
916.514893,0.305376931
916.997015,0.302818753
917.479138,0.297589554
917.96126,0.290283937
918.443383,0.282691134
918.925505,0.275616944
919.407628,0.268877801
919.88975,0.263033058
920.371873,0.260074247
920.853995,0.26152465
921.336118,0.266067765
921.81824,0.270511017
922.300363,0.272903828
922.782485,0.273198348
923.264608,0.271330935
923.74673,0.266811613
924.228853,0.260574486
924.710975,0.255695216
925.193098,0.255115735
925.67522,0.259270785
926.157343,0.266099748
926.639466,0.272998234
927.121588,0.278170981
927.603711,0.280639645
928.085833,0.280370181
928.567956,0.278561659
929.050078,0.277140493
929.532201,0.277799199
930.014323,0.280909343
930.496446,0.285589136
930.978568,0.290520588
931.460691,0.294084701
931.942813,0.294671364
932.424936,0.291994872
932.907058,0.288416362
933.389181,0.287477292
933.871303,0.290889918
934.353426,0.297700409
934.835548,0.305866889
935.317671,0.313892243
935.799793,0.321563303
936.281916,0.329152945
936.764038,0.336159828
937.246161,0.341534886
937.728283,0.34543849
938.210406,0.3492212
938.692528,0.353667101
939.174651,0.358380942
939.656773,0.36291961
940.138896,0.367715363
940.621018,0.373676635
941.103141,0.381124164
941.585263,0.389067607
942.067386,0.396494905
942.549508,0.403644394
943.031631,0.411343086
943.513753,0.419955641
943.995876,0.428983183
944.477998,0.437980132
944.960121,0.447269693
945.442243,0.457319161
945.924366,0.468187254
946.406488,0.479769364
946.888611,0.492242142
947.370733,0.504803247
947.852856,0.515547486
948.334978,0.523822524
948.817101,0.530873816
949.299224,0.538469379
949.781346,0.547885756
950.263469,0.559801434
950.745591,0.574477447
951.227714,0.59204357
951.709836,0.611787761
952.191959,0.631487048
952.674081,0.649033927
953.156204,0.664777262
953.638326,0.680441646
954.120449,0.696204719
954.602571,0.710554071
955.084694,0.722302471
955.566816,0.731654207
956.048939,0.739699792
956.531061,0.74728302
957.013184,0.754822823
957.495306,0.762746528
957.977429,0.772095302
958.459551,0.783846664
958.941674,0.797642863
959.423796,0.812290256
959.905919,0.82656559
960.388041,0.83912867
960.870164,0.848469056
961.352286,0.854037052
961.834409,0.856800796
962.316531,0.858332901
962.798654,0.860050048
963.280776,0.862742244
963.762899,0.865854361
964.245021,0.867467884
964.727144,0.865559687
965.209266,0.859389601
965.691389,0.849714078
966.173511,0.837924142
966.655634,0.824516691
967.137756,0.809178388
967.619879,0.79224971
968.102001,0.774494017
968.584124,0.755817555
969.066246,0.735641513
969.548369,0.714282187
970.030491,0.692630249
970.512614,0.670951171
970.994736,0.648481594
971.476859,0.624004186
971.958982,0.597235711
972.441104,0.569411264
972.923227,0.542072859
973.405349,0.51626611
973.887472,0.492782008
974.369594,0.472058735
974.851717,0.452999359
975.333839,0.433197842
975.815962,0.411914507
976.298084,0.391083662
976.780207,0.372586814
977.262329,0.356224118
977.744452,0.340816239
978.226574,0.325624983
978.708697,0.310393757
979.190819,0.295396918
979.672942,0.28078694
980.155064,0.266268463
980.637187,0.251971204
981.119309,0.238691595
981.601432,0.226571754
982.083554,0.215253451
982.565677,0.204360685
983.047799,0.193776521
983.529922,0.183988488
984.012044,0.175687421
984.494167,0.168403071
984.976289,0.161099214
985.458412,0.154002839
985.940534,0.148253324
986.422657,0.144058413
986.904779,0.140517085
987.386902,0.136762363
987.869024,0.132876168
988.351147,0.128914758
988.833269,0.123874969
989.315392,0.116787186
989.797514,0.135897935
990.279637,0.13014724
990.761759,0.127400084
991.243882,0.125900297
991.726004,0.123514231
992.208127,0.119902399
992.690249,0.116195787
993.172372,0.112926334
993.654494,0.109725937
994.136617,0.106632103
994.61874,0.104789634
995.100862,0.104745766
995.582985,0.104908157
996.065107,0.102786394
996.54723,0.097694593
997.029352,0.090821965
997.511475,0.09696432
997.993597,0.088654381
998.47572,0.079769186
998.957842,0.076763155
999.439965,0.065714381
999.922087,0.065373796
1000.40421,0.06264773
1000.886332,0
1001.368455,0
1001.850577,0
1002.3327,0
1002.814822,0
1003.296945,0
1003.779067,0
1004.26119,0
1004.743312,0
1005.225435,0
1005.707557,0
1006.18968,0
1006.671802,0
1007.153925,0
1007.636047,0
1008.11817,0
1008.600292,0
1009.082415,0
1009.564537,0
1010.04666,0
1010.528782,0
1011.010905,0
1011.493027,0
1011.97515,0
1012.457272,0
1012.939395,0
1013.421517,0
1013.90364,0
1014.385762,0
1014.867885,0
1015.350007,0
1015.83213,0
1016.314252,0
1016.796375,0
1017.278498,0
1017.76062,0
1018.242743,0
1018.724865,0
1019.206988,0
1019.68911,0
1020.171233,0
1020.653355,0
1021.135478,0
1021.6176,0
1022.099723,0
1022.581845,0
1023.063968,0
1023.54609,0
1024.028213,0
1024.510335,0
1024.992458,0
1025.47458,0
1025.956703,0
1026.438825,0
1026.920948,0
1027.40307,0
1027.885193,0
1028.367315,0
1028.849438,0
1029.33156,0
1029.813683,0
1030.295805,0
1030.777928,0
1031.26005,0
1031.742173,0
1032.224295,0
1032.706418,0
1033.18854,0
1033.670663,0
1034.152785,0
1034.634908,0
1035.11703,0
1035.599153,0
1036.081275,0
1036.563398,0
1037.04552,0
1037.527643,0
1038.009765,0
1038.491888,0
1038.97401,0
1039.456133,0
1039.938256,0
1040.420378,0
1040.902501,0
1041.384623,0
1041.866746,0
1042.348868,0
1042.830991,0
1043.313113,0
1043.795236,0
1044.277358,0
1044.759481,0
1045.241603,0
1045.723726,0
1046.205848,0
1046.687971,0
1047.170093,0
1047.652216,0
1048.134338,0
1048.616461,0
1049.098583,0
1049.580706,0
1050.062828,0
1050.544951,0
1051.027073,0
1051.509196,0
1051.991318,0
1052.473441,0
1052.955563,0
1053.437686,0
1053.919808,0
1054.401931,0
1054.884053,0
1055.366176,0
1055.848298,0
1056.330421,0
1056.812543,0
1057.294666,0
1057.776788,0
1058.258911,0
1058.741033,0
1059.223156,0.064711165
1059.705278,0.06727114
1060.187401,0.068220237
1060.669523,0.069092087
1061.151646,0.07082621
1061.633768,0.067354793
1062.115891,0.072384825
1062.598014,0.078462494
1063.080136,0.081726225
1063.562259,0.087190761
1064.044381,0.089137149
1064.526504,0.087773626
1065.008626,0.085041902
1065.490749,0.082222468
1065.972871,0.07970663
1066.454994,0.077965136
1066.937116,0.078223707
1067.419239,0.081195866
1067.901361,0.085987987
1068.383484,0.09075705
1068.865606,0.094796938
1069.347729,0.098218678
1069.829851,0.100676366
1070.311974,0.087549828
1070.794096,0.088048004
1071.276219,0.088899109
1071.758341,0.090734754
1072.240464,0.093382728
1072.722586,0.096053521
1073.204709,0.097934429
1073.686831,0.098821662
1074.168954,0.099050763
1074.651076,0.099676721
1075.133199,0.101907492
1075.615321,0.106138822
1076.097444,0.11200112
1076.579566,0.119069039
1077.061689,0.126307824
1077.543811,0.131982031
1078.025934,0.13411985
1078.508056,0.131907101
1078.990179,0.126859647
1079.472301,0.122309729
1079.954424,0.120487227
1080.436546,0.122076552
1080.918669,0.127469501
1081.400791,0.13656788
1081.882914,0.147373236
1082.365036,0.121623786
1082.847159,0.12773472
1083.329281,0.129919487
1083.811404,0.129438346
1084.293527,0.128554242
1084.775649,0.129036672
1085.257772,0.131956906
1085.739894,0.137662827
1086.222017,0.145177907
1086.704139,0.152179993
1087.186262,0.156509276
1087.668384,0.157878079
1088.150507,0.158029252
1088.632629,0.159139385
1089.114752,0.162488971
1089.596874,0.168212723
1090.078997,0.175463395
1090.561119,0.18276608
1091.043242,0.188664129
1091.525364,0.192031994
1092.007487,0.192127534
1092.489609,0.18943186
1092.971732,0.185641439
1093.453854,0.182575605
1093.935977,0.181136873
1094.418099,0.181172274
1094.900222,0.181777325
1095.382344,0.181649331
1095.864467,0.241866707
1096.346589,0.238792171
